item,channel,sample,value
1,1,1,1.02599084
1,1,2,1.04474461
1,1,3,1.05527675
1,1,4,1.0577035
1,1,5,1.05220699
1,1,6,1.03903496
1,1,7,1.01849723
1,1,8,0.990963638
1,1,9,0.956861079
1,1,10,0.91666925
1,1,11,0.870916843
1,1,12,0.820177197
1,1,13,0.765062809
1,1,14,0.706220984
1,1,15,0.644327641
1,1,16,0.580082238
1,2,1,0.880037248
1,2,2,0.874210536
1,2,3,0.836595833
1,2,4,0.769302607
1,2,5,0.67541647
1,2,6,0.558897495
1,2,7,0.424448669
1,2,8,0.277359784
1,2,9,0.123333618
1,2,10,-0.0317039192
1,2,11,-0.181798801
1,2,12,-0.321166694
1,2,13,-0.444383621
1,2,14,-0.546565354
1,2,15,-0.623529553
1,2,16,-0.671933472
2,1,1,1.05399489
2,1,2,1.09961462
2,1,3,1.13673699
2,1,4,1.16534138
2,1,5,1.18547475
2,1,6,1.19725096
2,1,7,1.2008487
2,1,8,1.19650877
2,1,9,1.1845324
2,1,10,1.16527689
2,1,11,1.13915277
2,1,12,1.10661888
2,1,13,1.06817842
2,1,14,1.02437389
2,1,15,0.975782275
2,1,16,0.923009217
2,2,1,0.908041298
2,2,2,0.929080427
2,2,3,0.918055952
2,2,4,0.876940548
2,2,5,0.808684111
2,2,6,0.717113495
2,2,7,0.606800079
2,2,8,0.482904851
2,2,9,0.351004899
2,2,10,0.216903672
2,2,11,0.0864370465
2,2,12,-0.0347250104
2,2,13,-0.141268015
2,2,14,-0.22841239
2,2,15,-0.292074859
2,2,16,-0.329006493
3,1,1,1.08195937
3,1,2,1.1541692
3,1,3,1.21713614
3,1,4,1.2704742
3,1,5,1.31387413
3,1,6,1.34710538
3,1,7,1.37001717
3,1,8,1.3825382
3,1,9,1.38467753
3,1,10,1.37652338
3,1,11,1.35824084
3,1,12,1.33007145
3,1,13,1.29232919
3,1,14,1.24539816
3,1,15,1.18972862
3,1,16,1.12583327
3,2,1,0.936005652
3,2,2,0.983635128
3,2,3,0.998455226
3,2,4,0.982073367
3,2,5,0.937083542
3,2,6,0.866967976
3,2,7,0.775968611
3,2,8,0.668934286
3,2,9,0.551150143
3,2,10,0.428150177
3,2,11,0.305525184
3,2,12,0.188727632
3,2,13,0.0828827769
3,2,14,-0.00738815963
3,2,15,-0.0781285092
3,2,16,-0.126182422
4,1,1,1.10986483
4,1,2,1.20825243
4,1,3,1.29595292
4,1,4,1.37188637
4,1,5,1.43508232
4,1,6,1.48469257
4,1,7,1.52000165
4,1,8,1.54043579
4,1,9,1.54557216
4,1,10,1.53514409
4,1,11,1.50904703
4,1,12,1.46734047
4,1,13,1.41024995
4,1,14,1.33816671
4,1,15,1.25164497
4,1,16,1.1513983
4,2,1,0.963911116
4,2,2,1.03771818
4,2,3,1.07727194
4,2,4,1.08348548
4,2,5,1.05829179
4,2,6,1.00455511
4,2,7,0.92595309
4,2,8,0.826831877
4,2,9,0.712044716
4,2,10,0.586771011
4,2,11,0.456331432
4,2,12,0.325996578
4,2,13,0.200803533
4,2,14,0.0853804052
4,2,15,-0.0162121952
4,2,16,-0.100617446
5,1,1,1.13769126
5,1,2,1.26170874
5,1,3,1.37267578
5,1,4,1.46840525
5,1,5,1.54690742
5,1,6,1.6064285
5,1,7,1.64548516
5,1,8,1.66289496
5,1,9,1.65780175
5,1,10,1.62969565
5,1,11,1.57842779
5,1,12,1.50421739
5,1,13,1.407655
5,1,14,1.28969717
5,1,15,1.15165567
5,1,16,0.99518168
5,2,1,0.991737664
5,2,2,1.09117448
5,2,3,1.1539948
5,2,4,1.18000436
5,2,5,1.17011678
5,2,6,1.12629104
5,2,7,1.05143654
5,2,8,0.94929105
5,2,9,0.824274361
5,2,10,0.681322634
5,2,11,0.525712132
5,2,12,0.362873614
5,2,13,0.198208615
5,2,14,0.0369108617
5,2,15,-0.116201423
5,2,16,-0.25683406
6,1,1,1.16541946
6,1,2,1.31438529
6,1,3,1.4468075
6,1,4,1.55891585
6,1,5,1.64732873
6,1,6,1.70914519
6,1,7,1.74202573
6,1,8,1.74425983
6,1,9,1.71481788
6,1,10,1.653386
6,1,11,1.56038344
6,1,12,1.43696153
6,1,13,1.28498352
6,1,14,1.10698783
6,1,15,0.906132996
6,1,16,0.686127365
6,2,1,1.0194658
6,2,2,1.14385104
6,2,3,1.22812641
6,2,4,1.27051497
6,2,5,1.27053821
6,2,6,1.22900772
6,2,7,1.14797723
6,2,8,1.03065586
6,2,9,0.881290376
6,2,10,0.705012858
6,2,11,0.50766784
6,2,12,0.295617759
6,2,13,0.0755371898
6,2,14,-0.14579846
6,2,15,-0.361724138
6,2,16,-0.565888345
7,1,1,1.19302976
7,1,2,1.36613095
7,1,3,1.51786709
7,1,4,1.64237285
7,1,5,1.73453355
7,1,6,1.79017377
7,1,7,1.80621386
7,1,8,1.78078794
7,1,9,1.7133224
7,1,10,1.60456765
7,1,11,1.45658517
7,1,12,1.27268982
7,1,13,1.05734611
7,1,14,0.816028237
7,1,15,0.555041432
7,1,16,0.281316727
7,2,1,1.04707611
7,2,2,1.19559681
7,2,3,1.29918611
7,2,4,1.35397196
7,2,5,1.35774291
7,2,6,1.3100363
7,2,7,1.21216524
7,2,8,1.06718409
7,2,9,0.879795015
7,2,10,0.656194448
7,2,11,0.40386951
7,2,12,0.131345883
7,2,13,-0.152100265
7,2,14,-0.436758041
7,2,15,-0.712815762
7,2,16,-0.970699012
8,1,1,1.22050261
8,1,2,1.4167974
8,1,3,1.58539462
8,1,4,1.71781337
8,1,5,1.80694962
8,1,6,1.84741426
8,1,7,1.83579433
8,1,8,1.77082479
8,1,9,1.65346217
8,1,10,1.48685741
8,1,11,1.27622747
8,1,12,1.02863455
8,1,13,0.752678454
8,1,14,0.458121955
8,1,15,0.1554607
8,1,16,-0.144539401
8,2,1,1.07454884
8,2,2,1.24626327
8,2,3,1.36671352
8,2,4,1.42941248
8,2,5,1.43015897
8,2,6,1.36727679
8,2,7,1.24174571
8,2,8,1.05722082
8,2,9,0.819934845
8,2,10,0.538484275
8,2,11,0.22351177
8,2,12,-0.112709329
8,2,13,-0.456767917
8,2,14,-0.794664264
8,2,15,-1.11239648
8,2,16,-1.39655519
9,1,1,1.24781883
9,1,2,1.46623981
9,1,3,1.64895272
9,1,4,1.78436852
9,1,5,1.86327517
9,1,6,1.87939107
9,1,7,1.82974756
9,1,8,1.71488106
9,1,9,1.53882062
9,1,10,1.30887401
9,1,11,1.03522205
9,1,12,0.730346978
9,1,13,0.408327907
9,1,14,0.0840434879
9,1,15,-0.227669537
9,1,16,-0.512856066
9,2,1,1.10186505
9,2,2,1.29570556
9,2,3,1.43027163
9,2,4,1.49596763
9,2,5,1.48648453
9,2,6,1.39925361
9,2,7,1.23569894
9,2,8,1.00127709
9,2,9,0.705293238
9,2,10,0.360500932
9,2,11,-0.0174936652
9,2,12,-0.410996914
9,2,13,-0.801118433
9,2,14,-1.1687429
9,2,15,-1.49552679
9,2,16,-1.76487184
10,1,1,1.27495897
10,1,2,1.51431632
10,1,3,1.70813048
10,1,4,1.84127247
10,1,5,1.90250123
10,1,6,1.88529122
10,1,7,1.78832471
10,1,8,1.6156081
10,1,9,1.37620604
10,1,10,1.08361208
10,1,11,0.754801631
10,1,12,0.409033179
10,1,13,0.0664902031
10,1,14,-0.253144503
10,1,15,-0.532075822
10,1,16,-0.755641401
10,2,1,1.12900519
10,2,2,1.34378219
10,2,3,1.4894495
10,2,4,1.5528717
10,2,5,1.52571058
10,2,6,1.40515375
10,2,7,1.19427621
10,2,8,0.902004302
10,2,9,0.542678714
10,2,10,0.13523905
10,2,11,-0.297914058
10,2,12,-0.732310653
10,2,13,-1.14295626
10,2,14,-1.5059309
10,2,15,-1.79993308
10,2,16,-2.00765729
11,1,1,1.3019042
11,1,2,1.56088984
11,1,3,1.76254559
11,1,4,1.88787317
11,1,5,1.92393088
11,1,6,1.8649863
11,1,7,1.71303999
11,1,8,1.47767591
11,1,9,1.17525172
11,1,10,0.827499211
11,1,11,0.459656835
11,1,12,0.0982999876
11,1,13,-0.230945274
11,1,14,-0.505599141
11,1,15,-0.708247185
11,1,16,-0.828014314
11,2,1,1.15595055
11,2,2,1.39035571
11,2,3,1.54386461
11,2,4,1.59947217
11,2,5,1.54714024
11,2,6,1.38484883
11,2,7,1.11899137
11,2,8,0.764072001
11,2,9,0.341724217
11,2,10,-0.120873936
11,2,11,-0.593058825
11,2,12,-1.04304385
11,2,13,-1.44039166
11,2,14,-1.75838554
11,2,15,-1.97610438
11,2,16,-2.08002996
12,1,1,1.32863557
12,1,2,1.60582697
12,1,3,1.81184733
12,1,4,1.92363751
12,1,5,1.9271915
12,1,6,1.81903541
12,1,7,1.60661554
12,1,8,1.30755389
12,1,9,0.947847605
12,1,10,0.559201717
12,1,11,0.175770968
12,1,12,-0.169348925
12,1,13,-0.447515041
12,1,14,-0.63746351
12,1,15,-0.727461815
12,1,16,-0.716466486
12,2,1,1.1826818
12,2,2,1.43529272
12,2,3,1.59316623
12,2,4,1.63523662
12,2,5,1.55040097
12,2,6,1.33889794
12,2,7,1.01256692
12,2,8,0.593950033
12,2,9,0.114320174
12,2,10,-0.389171422
12,2,11,-0.876944721
12,2,12,-1.31069279
12,2,13,-1.65696144
12,2,14,-1.89024973
12,2,15,-1.99531889
12,2,16,-1.96848226
13,1,1,1.35513401
13,1,2,1.64899933
13,1,3,1.85571778
13,1,4,1.94815981
13,1,5,1.91224182
13,1,6,1.74867022
13,1,7,1.47288477
13,1,8,1.11321068
13,1,9,0.707441509
13,1,10,0.298271656
13,1,11,-0.0718614087
13,1,12,-0.365902156
13,1,13,-0.556635737
13,1,14,-0.629941463
13,1,15,-0.586442292
13,1,16,-0.441349775
13,2,1,1.20918024
13,2,2,1.47846508
13,2,3,1.6370368
13,2,4,1.65975893
13,2,5,1.53545129
13,2,6,1.26853275
13,2,7,0.878836215
13,2,8,0.399606884
13,2,9,-0.126085997
13,2,10,-0.650101423
13,2,11,-1.12457705
13,2,12,-1.50724602
13,2,13,-1.76608229
13,2,14,-1.88272786
13,2,15,-1.85429955
13,2,16,-1.69336557
14,1,1,1.38138115
14,1,2,1.69028389
14,1,3,1.89387584
14,1,4,1.96116567
14,1,5,1.87937307
14,1,6,1.65576351
14,1,7,1.31665587
14,1,8,0.903743267
14,1,9,0.468246043
14,1,10,0.0637259334
14,1,11,-0.26142627
14,1,12,-0.470761597
14,1,13,-0.544852495
14,1,14,-0.483955741
14,1,15,-0.307888031
14,1,16,-0.0531297289
14,2,1,1.2354275
14,2,2,1.51974976
14,2,3,1.67519474
14,2,4,1.67276466
14,2,5,1.50258243
14,2,6,1.17562604
14,2,7,0.722607434
14,2,8,0.190139338
14,2,9,-0.365281463
14,2,10,-0.884647191
14,2,11,-1.31414199
14,2,12,-1.61210549
14,2,13,-1.75429893
14,2,14,-1.73674214
14,2,15,-1.57574522
14,2,16,-1.3051455
15,1,1,1.40735853
15,1,2,1.72956288
15,1,3,1.92607701
15,1,4,1.96251452
15,1,5,1.82920229
15,1,6,1.54277933
15,1,7,1.14353979
15,1,8,0.688952565
15,1,9,0.244403601
15,1,10,-0.127334774
15,1,11,-0.376203716
15,1,12,-0.472889304
15,1,13,-0.413482726
15,1,14,-0.220017433
15,1,15,0.063204959
15,1,16,0.376905203
15,2,1,1.26140475
15,2,2,1.55902874
15,2,3,1.70739591
15,2,4,1.67411363
15,2,5,1.45241165
15,2,6,1.06264186
15,2,7,0.549491167
15,2,8,-0.0246513337
15,2,9,-0.589123845
15,2,10,-1.07570791
15,2,11,-1.42891932
15,2,12,-1.61423314
15,2,13,-1.6229291
15,2,14,-1.47280371
15,2,15,-1.20465219
15,2,16,-0.875110507
16,1,1,1.43304765
16,1,2,1.76672447
16,1,3,1.95211613
16,1,4,1.95220244
16,1,5,1.76266277
16,1,6,1.41270828
16,1,7,0.959749639
16,1,8,0.478887111
16,1,9,0.0491517335
16,1,10,-0.260965705
16,1,11,-0.406036198
16,1,12,-0.371959329
16,1,13,-0.178455517
16,1,14,0.124675527
16,1,15,0.46683985
16,1,16,0.769769728
16,2,1,1.287094
16,2,2,1.59619021
16,2,3,1.73343515
16,2,4,1.66380155
16,2,5,1.38587224
16,2,6,0.932570875
16,2,7,0.365701079
16,2,8,-0.234716773
16,2,9,-0.784375727
16,2,10,-1.2093389
16,2,11,-1.45875192
16,2,12,-1.51330328
16,2,13,-1.38790202
16,2,14,-1.12811089
16,2,15,-0.801017284
16,2,16,-0.482245982
17,1,1,1.45843077
17,1,2,1.80166316
17,1,3,1.9718293
17,1,4,1.93036163
17,1,5,1.68098617
17,1,6,1.26898956
17,1,7,0.77188009
17,1,8,0.283376247
17,1,9,-0.105955034
17,1,10,-0.327392906
17,1,11,-0.348218292
17,1,12,-0.178390771
17,1,13,0.131634951
17,1,14,0.501500785
17,1,15,0.837743163
17,1,16,1.05332017
17,2,1,1.31247711
17,2,2,1.63112891
17,2,3,1.7531482
17,2,4,1.64196074
17,2,5,1.30419552
17,2,6,0.788852096
17,2,7,0.177831575
17,2,8,-0.430227637
17,2,9,-0.93948251
17,2,10,-1.27576602
17,2,11,-1.40093398
17,2,12,-1.31973469
17,2,13,-1.07781148
17,2,14,-0.751285553
17,2,15,-0.430113971
17,2,16,-0.198695645
18,1,1,1.48348999
18,1,2,1.83427954
18,1,3,1.98509288
18,1,4,1.89725852
18,1,5,1.58567953
18,1,6,1.1154207
18,1,7,0.586671174
18,1,8,0.111570463
18,1,9,-0.211725667
18,1,10,-0.321720749
18,1,11,-0.207735315
18,1,12,0.0877371579
18,1,13,0.479023069
18,1,14,0.857290328
18,1,15,1.11594808
18,1,16,1.17553878
18,2,1,1.33753622
18,2,2,1.66374528
18,2,3,1.7664119
18,2,4,1.60885775
18,2,5,1.20888889
18,2,6,0.635283351
18,2,7,-0.00737738609
18,2,8,-0.602033436
18,2,9,-1.04525316
18,2,10,-1.27009392
18,2,11,-1.26045108
18,2,12,-1.05360663
18,2,13,-0.730423272
18,2,14,-0.395496011
18,2,15,-0.151909083
18,2,16,-0.0764769614
19,1,1,1.50820768
19,1,2,1.86448157
19,1,3,1.99182689
19,1,4,1.85329163
19,1,5,1.47849917
19,1,6,0.956057131
19,1,7,0.410768002
19,1,8,-0.028482683
19,1,9,-0.26187402
19,1,10,-0.244288385
19,1,11,0.0031753704
19,1,12,0.398781002
19,1,13,0.821386695
19,1,14,1.14185154
19,1,15,1.25651538
19,1,16,1.11410904
19,2,1,1.36225402
19,2,2,1.69394732
19,2,3,1.77314591
19,2,4,1.56489086
19,2,5,1.10170865
19,2,6,0.475919724
19,2,7,-0.183280557
19,2,8,-0.742086589
19,2,9,-1.09540153
19,2,10,-1.19266152
19,2,11,-1.04954028
19,2,12,-0.74256283
19,2,13,-0.388059735
19,2,14,-0.110934697
19,2,15,-0.0113417655
19,2,16,-0.13790676
20,1,1,1.53256667
20,1,2,1.89218378
20,1,3,1.99199319
20,1,4,1.79898596
20,1,5,1.36141765
20,1,6,0.795106947
20,1,7,0.250483155
20,1,8,-0.13021487
20,1,9,-0.253388643
20,1,10,-0.100645058
20,1,11,0.266096324
20,1,12,0.722412348
20,1,13,1.11701584
20,1,14,1.31506991
20,1,15,1.23681951
20,1,16,0.880524337
20,2,1,1.38661301
20,2,2,1.72164953
20,2,3,1.77331221
20,2,4,1.51058495
20,2,5,0.984627187
20,2,6,0.31496954
20,2,7,-0.343565404
20,2,8,-0.843818784
20,2,9,-1.08691609
20,2,10,-1.04901826
20,2,11,-0.786619306
20,2,12,-0.418931484
20,2,13,-0.0924305394
20,2,14,0.0622836202
20,2,15,-0.0310376957
20,2,16,-0.371491373
21,1,1,1.55654967
21,1,2,1.91730809
21,1,3,1.98559749
21,1,4,1.73498678
21,1,5,1.23658788
21,1,6,0.636819124
21,1,7,0.1115724
21,1,8,-0.188842222
21,1,9,-0.186710224
21,1,10,0.098853007
21,1,11,0.558048248
21,1,12,1.02499223
21,1,13,1.32991254
21,1,14,1.35258114
21,1,15,1.06021535
21,1,16,0.517971396
21,2,1,1.41059601
21,2,2,1.74677384
21,2,3,1.76691639
21,2,4,1.44658577
21,2,5,0.859797418
21,2,6,0.156681731
21,2,7,-0.482476115
21,2,8,-0.902446091
21,2,9,-1.02023768
21,2,10,-0.849520147
21,2,11,-0.494667411
21,2,12,-0.116351664
21,2,13,0.120466188
21,2,14,0.0997948647
21,2,15,-0.20764178
21,2,16,-0.734044373
22,1,1,1.58014011
22,1,2,1.93978417
22,1,3,1.97268832
22,1,4,1.66205347
22,1,5,1.10630465
22,1,6,0.485373765
22,1,7,-0.00097146444
22,1,8,-0.201587766
22,1,9,-0.0657056272
22,1,10,0.339793921
22,1,11,0.853503704
22,1,12,1.2750746
22,1,13,1.43418658
22,1,14,1.24921978
22,1,15,0.755495667
22,1,16,0.0933824405
22,2,1,1.43418646
22,2,2,1.76925004
22,2,3,1.75400734
22,2,4,1.3736527
22,2,5,0.729514182
22,2,6,0.00523634255
22,2,7,-0.595019996
22,2,8,-0.915191591
22,2,9,-0.899233043
22,2,10,-0.608579218
22,2,11,-0.199212
22,2,12,0.133730784
22,2,13,0.224740162
22,2,14,-0.00356648862
22,2,15,-0.512361526
22,2,16,-1.15863335
23,1,1,1.60332119
23,1,2,1.95954931
23,1,3,1.9533571
23,1,4,1.58104932
23,1,5,0.972961187
23,1,6,0.344770551
23,1,7,-0.0830961615
23,1,8,-0.167811528
23,1,9,0.10255973
23,1,10,0.604758203
23,1,11,1.12662756
23,1,12,1.44668901
23,1,13,1.41721928
23,1,14,1.01975048
23,1,15,0.372220814
23,1,16,-0.314891517
23,2,1,1.45736754
23,2,2,1.78901505
23,2,3,1.734676
23,2,4,1.29264832
23,2,5,0.596170664
23,2,6,-0.135366887
23,2,7,-0.677144647
23,2,8,-0.881415367
23,2,9,-0.7309677
23,2,10,-0.343614995
23,2,11,0.0739119351
23,2,12,0.305345237
23,2,13,0.207773015
23,2,14,-0.233035833
23,2,15,-0.89563632
23,2,16,-1.56690741
24,1,1,1.62607718
24,1,2,1.97654855
24,1,3,1.92773736
24,1,4,1.4929316
24,1,5,0.839007199
24,1,6,0.218724847
24,1,7,-0.131835818
24,1,8,-0.0890399218
24,1,9,0.308237821
24,1,10,0.87458092
24,1,11,1.35354567
24,1,12,1.52204585
24,1,13,1.28120661
24,1,14,0.696776628
24,1,15,-0.0273108054
24,1,16,-0.631502628
24,2,1,1.4801234
24,2,2,1.80601442
24,2,3,1.70905626
24,2,4,1.2045306
24,2,5,0.462216675
24,2,6,-0.261412561
24,2,7,-0.725884378
24,2,8,-0.802643836
24,2,9,-0.525289655
24,2,10,-0.0737922341
24,2,11,0.300829947
24,2,12,0.380702078
24,2,13,0.0717602819
24,2,14,-0.55600965
24,2,15,-1.29516804
24,2,16,-1.88351834
25,1,1,1.64839184
25,1,2,1.99073541
25,1,3,1.89600408
25,1,4,1.39874065
25,1,5,0.706903517
25,1,6,0.110570446
25,1,7,-0.145415112
25,1,8,0.0311057679
25,1,9,0.53927809
25,1,10,1.12974501
25,1,11,1.51443601
25,1,12,1.49339199
25,1,13,1.0428884
25,1,14,0.326132476
25,1,15,-0.378167987
25,1,16,-0.797978163
25,2,1,1.50243807
25,2,2,1.82020116
25,2,3,1.67732298
25,2,4,1.11033976
25,2,5,0.330112994
25,2,6,-0.369566977
25,2,7,-0.739463687
25,2,8,-0.682498097
25,2,9,-0.294249356
25,2,10,0.181371793
25,2,11,0.461720288
25,2,12,0.352048099
25,2,13,-0.166558027
25,2,14,-0.926653802
25,2,15,-1.64602518
25,2,16,-2.04999375
26,1,1,1.67024958
26,1,2,2.0020709
26,1,3,1.85837221
26,1,4,1.29958832
26,1,5,0.579077125
26,1,6,0.0231716279
26,1,7,-0.123313822
26,1,8,0.187076777
26,1,9,0.782136619
26,1,10,1.35179722
26,1,11,1.5952704
26,1,12,1.36381948
26,1,13,0.731506228
26,1,14,-0.0396071449
26,1,15,-0.62330997
26,1,16,-0.783484876
26,2,1,1.52429581
26,2,2,1.83153677
26,2,3,1.63969111
26,2,4,1.01118743
26,2,5,0.202286586
26,2,6,-0.456965804
26,2,7,-0.717362344
26,2,8,-0.526527107
26,2,9,-0.0513908193
26,2,10,0.403424144
26,2,11,0.542554736
26,2,12,0.222475722
26,2,13,-0.477940142
26,2,14,-1.29239345
26,2,15,-1.89116716
26,2,16,-2.03550053
27,1,1,1.69163537
27,1,2,2.01052523
27,1,3,1.81509578
27,1,4,1.19664407
27,1,5,0.457876951
27,1,6,-0.0411525592
27,1,7,-0.0662850961
27,1,8,0.371656537
27,1,9,1.02257383
27,1,10,1.5246892
27,1,11,1.58904469
27,1,12,1.14694262
27,1,13,0.385226548
27,1,14,-0.34855786
27,1,15,-0.722832441
27,1,16,-0.590507507
27,2,1,1.5456816
27,2,2,1.83999121
27,2,3,1.59641469
27,2,4,0.908243239
27,2,5,0.0810864121
27,2,6,-0.521290004
27,2,7,-0.660333574
27,2,8,-0.341947377
27,2,9,0.189046338
27,2,10,0.576315999
27,2,11,0.536329031
27,2,12,0.00559867918
27,2,13,-0.824219763
27,2,14,-1.60134423
27,2,15,-1.99068964
27,2,16,-1.84252322
28,1,1,1.71253407
28,1,2,2.01607656
28,1,3,1.76646543
28,1,4,1.09112084
28,1,5,0.345531404
28,1,6,-0.0806878284
28,1,7,0.0236719158
28,1,8,0.576296806
28,1,9,1.24649286
28,1,10,1.63594031
28,1,11,1.49639261
28,1,12,0.865478575
28,1,13,0.0464818403
28,1,14,-0.556872249
28,1,15,-0.66043967
28,1,16,-0.254388511
28,2,1,1.56658041
28,2,2,1.84554243
28,2,3,1.54778445
28,2,4,0.80272007
28,2,5,-0.0312591419
28,2,6,-0.560825229
28,2,7,-0.570376635
28,2,8,-0.137307107
28,2,9,0.412965417
28,2,10,0.687567234
28,2,11,0.443677008
28,2,12,-0.275865316
28,2,13,-1.1629647
28,2,14,-1.80965865
28,2,15,-1.92829692
28,2,16,-1.5064044
29,1,1,1.73293149
29,1,2,2.01871181
29,1,3,1.71280766
29,1,4,0.984263241
29,1,5,0.24410677
29,1,6,-0.094370544
29,1,7,0.143382251
29,1,8,0.791513562
29,1,9,1.44076824
29,1,10,1.6775471
29,1,11,1.32553089
29,1,12,0.548880458
29,1,13,-0.243216097
29,1,14,-0.634937704
29,1,15,-0.446084619
29,1,16,0.163174585
29,2,1,1.58697772
29,2,2,1.84817743
29,2,3,1.49412656
29,2,4,0.695862412
29,2,5,-0.132683769
29,2,6,-0.574507952
29,2,7,-0.450666308
29,2,8,0.0779096633
29,2,9,0.607240796
29,2,10,0.729173899
29,2,11,0.272815287
29,2,12,-0.592463374
29,2,13,-1.45266247
29,2,14,-1.88772404
29,2,15,-1.71394181
29,2,16,-1.0888412
30,1,1,1.7528131
30,1,2,2.01842546
30,1,3,1.65448129
30,1,4,0.877330184
30,1,5,0.155470684
30,1,6,-0.0818155259
30,1,7,0.28861022
30,1,8,1.00733173
30,1,9,1.59402132
30,1,10,1.64656055
30,1,11,1.09153914
30,1,12,0.230261669
30,1,13,-0.44835037
30,1,14,-0.571569085
30,1,15,-0.114355117
30,1,16,0.585492492
30,2,1,1.60685945
30,2,2,1.84789145
30,2,3,1.43580019
30,2,4,0.588929355
30,2,5,-0.221319854
30,2,6,-0.561952949
30,2,7,-0.30543831
30,2,8,0.293727815
30,2,9,0.760493755
30,2,10,0.698187351
30,2,11,0.0388234258
30,2,12,-0.911082149
30,2,13,-1.65779674
30,2,14,-1.82435536
30,2,15,-1.38221228
30,2,16,-0.666523218
31,1,1,1.7721653
31,1,2,2.01522207
31,1,3,1.59187603
31,1,4,0.771581948
31,1,5,0.0812580884
31,1,6,-0.0433258712
31,1,7,0.454208225
31,1,8,1.21374774
31,1,9,1.69728768
31,1,10,1.54530358
31,1,11,0.81503284
31,1,12,-0.0570510328
31,1,13,-0.543733895
31,1,14,-0.375589997
31,1,15,0.281133503
31,1,16,0.934999883
31,2,1,1.62621152
31,2,2,1.84468782
31,2,3,1.37319505
31,2,4,0.483181119
31,2,5,-0.295532465
31,2,6,-0.523463309
31,2,7,-0.13984032
31,2,8,0.500143826
31,2,9,0.863760293
31,2,10,0.596930504
31,2,11,-0.23768279
31,2,12,-1.19839489
31,2,13,-1.75318038
31,2,14,-1.62837636
31,2,15,-0.986723661
31,2,16,-0.317015827
32,1,1,1.79097474
32,1,2,2.00911355
32,1,3,1.52541029
32,1,4,0.668264747
32,1,5,0.022839766
32,1,6,0.0201144628
32,1,7,0.634303212
32,1,8,1.40119636
32,1,9,1.74454653
32,1,10,1.38120008
32,1,11,0.520360529
32,1,12,-0.282995492
32,1,13,-0.517590582
32,1,14,-0.0745832771
32,1,15,0.676427186
32,1,16,1.14753628
32,2,1,1.64502096
32,2,2,1.83857942
32,2,3,1.30672932
32,2,4,0.379863918
32,2,5,-0.353950769
32,2,6,-0.460022986
32,2,7,0.0402546525
32,2,8,0.687592447
32,2,9,0.911019146
32,2,10,0.432826936
32,2,11,-0.53235513
32,2,12,-1.42433929
32,2,13,-1.72703695
32,2,14,-1.32736957
32,2,15,-0.591430008
32,2,16,-0.104479462
33,1,1,1.80922818
33,1,2,2.00012064
33,1,3,1.45552671
33,1,4,0.568597019
33,1,5,-0.018700663
33,1,6,0.106867492
33,1,7,0.82250309
33,1,8,1.56099403
33,1,9,1.73307431
33,1,10,1.16623664
33,1,11,0.233463347
33,1,12,-0.423909962
33,1,13,-0.372992337
33,1,14,0.289007664
33,1,15,1.00760603
33,1,16,1.18415642
33,2,1,1.66327453
33,2,2,1.82958639
33,2,3,1.23684573
33,2,4,0.28019619
33,2,5,-0.395491183
33,2,6,-0.373269916
33,2,7,0.228454545
33,2,8,0.847390175
33,2,9,0.899546802
33,2,10,0.217863545
33,2,11,-0.819252312
33,2,12,-1.56525397
33,2,13,-1.58243883
33,2,14,-0.963778615
33,2,15,-0.260251045
33,2,16,-0.0678593069
34,1,1,1.82691336
34,1,2,1.98827267
34,1,3,1.3826915
34,1,4,0.47375387
34,1,5,-0.0425874516
34,1,6,0.214682996
34,1,7,1.01212847
34,1,8,1.68574667
34,1,9,1.66360545
34,1,10,0.916093111
34,1,11,-0.0203995034
34,1,12,-0.464996636
34,1,13,-0.127485037
34,1,14,0.663888693
34,1,15,1.2211436
34,1,16,1.03830338
34,2,1,1.68095958
34,2,2,1.81773841
34,2,3,1.16401052
34,2,4,0.185353026
34,2,5,-0.419377983
34,2,6,-0.265454412
34,2,7,0.418079913
34,2,8,0.972142756
34,2,9,0.830077946
34,2,10,-0.0322800502
34,2,11,-1.07311523
34,2,12,-1.60634053
34,2,13,-1.33693147
34,2,14,-0.588897586
34,2,15,-0.0467135385
34,2,16,-0.213712394
35,1,1,1.84401786
35,1,2,1.97360718
35,1,3,1.30738974
35,1,4,0.384854406
35,1,5,-0.0483668819
35,1,6,0.340758234
35,1,7,1.19644713
35,1,8,1.76969123
35,1,9,1.54028857
35,1,10,0.64900291
35,1,11,-0.218866736
35,1,12,-0.401867181
35,1,13,0.189057857
35,1,14,0.997165084
35,1,15,1.28258348
35,1,16,0.737012863
35,2,1,1.69806409
35,2,2,1.80307293
35,2,3,1.08870864
35,2,4,0.0964535624
35,2,5,-0.425157428
35,2,6,-0.139379203
35,2,7,0.602398515
35,2,8,1.05608726
35,2,9,0.706761062
35,2,10,-0.29937017
35,2,11,-1.27158237
35,2,12,-1.54321098
35,2,13,-1.0203886
35,2,14,-0.255621195
35,2,15,0.0147262961
35,2,16,-0.515002847
36,1,1,1.86052978
36,1,2,1.95616972
36,1,3,1.23012269
36,1,4,0.302948087
36,1,5,-0.0359152816
36,1,6,0.481810927
36,1,7,1.36891794
36,1,8,1.80896533
36,1,9,1.37044322
36,1,10,0.38443023
36,1,11,-0.344439
36,1,12,-0.241000384
36,1,13,0.538080752
36,1,14,1.24183118
36,1,15,1.18212759
36,1,16,0.335936338
36,2,1,1.71457601
36,2,2,1.78563547
36,2,3,1.01144171
36,2,4,0.0145472437
36,2,5,-0.412705839
36,2,6,0.00167350471
36,2,7,0.774869442
36,2,8,1.09536135
36,2,9,0.536915779
36,2,10,-0.563942909
36,2,11,-1.39715481
36,2,12,-1.38234425
36,2,13,-0.671365619
36,2,14,-0.01095514
36,2,15,-0.0857295245
36,2,16,-0.916079402
37,1,1,1.87643814
37,1,2,1.93601429
37,1,3,1.1514045
37,1,4,0.229003295
37,1,5,-0.00544150174
37,1,6,0.634167075
37,1,7,1.52342117
37,1,8,1.80178642
37,1,9,1.16412795
37,1,10,0.141656265
37,1,11,-0.386010468
37,1,12,0.000935837626
37,1,13,0.877062917
37,1,14,1.36341429
37,1,15,0.936224163
37,1,16,-0.0909017026
37,2,1,1.73048437
37,2,2,1.76548016
37,2,3,0.932723582
37,2,4,-0.0593975484
37,2,5,-0.38223204
37,2,6,0.154029652
37,2,7,0.929372609
37,2,8,1.08818245
37,2,9,0.330600441
37,2,10,-0.806716859
37,2,11,-1.43872619
37,2,12,-1.14040804
37,2,13,-0.332383454
37,2,14,0.110627994
37,2,15,-0.331633002
37,2,16,-1.34291744
38,1,1,1.89173174
38,1,2,1.91320276
38,1,3,1.07175922
38,1,4,0.163894951
38,1,5,0.042517066
38,1,6,0.793854773
38,1,7,1.65447927
38,1,8,1.74853539
38,1,9,0.933548748
38,1,10,-0.0616204739
38,1,11,-0.339846075
38,1,12,0.298819274
38,1,13,1.16470766
38,1,14,1.34485626
38,1,15,0.584899485
38,1,16,-0.464736164
38,2,1,1.74577796
38,2,2,1.74266851
38,2,3,0.853078127
38,2,4,-0.124505892
38,2,5,-0.334273458
38,2,6,0.313717365
38,2,7,1.06043065
38,2,8,1.03493154
38,2,9,0.100021273
38,2,10,-1.00999367
38,2,11,-1.39256179
38,2,12,-0.842524529
38,2,13,-0.0447386652
38,2,14,0.0920700282
38,2,15,-0.682957649
38,2,16,-1.71675193
39,1,1,1.90640032
39,1,2,1.88780463
39,1,3,0.991716564
39,1,4,0.108394876
39,1,5,0.107104197
39,1,6,0.956709743
39,1,7,1.75745118
39,1,8,1.651739
39,1,9,0.692340136
39,1,10,-0.21056889
39,1,11,-0.209908471
39,1,12,0.621693611
39,1,13,1.36599147
39,1,14,1.18892348
39,1,15,0.185269743
39,1,16,-0.716559589
39,2,1,1.76044667
39,2,2,1.71727037
39,2,3,0.773035586
39,2,4,-0.180005968
39,2,5,-0.269686341
39,2,6,0.476572335
39,2,7,1.16340268
39,2,8,0.938135087
39,2,9,-0.141187355
39,2,10,-1.1589421
39,2,11,-1.26262426
39,2,12,-0.519650221
39,2,13,0.156545088
39,2,14,-0.063862741
39,2,15,-1.08258748
39,2,16,-1.96857536
40,1,1,1.920434
40,1,2,1.8598969
40,1,3,0.911808908
40,1,4,0.0631627738
40,1,5,0.187160403
40,1,6,1.11848617
40,1,7,1.82869768
40,1,8,1.51595092
40,1,9,0.45476234
40,1,10,-0.294302434
40,1,11,-0.00751081482
40,1,12,0.935999632
40,1,13,1.45644403
40,1,14,0.917818129
40,1,15,-0.197716162
40,1,16,-0.799826622
40,2,1,1.77448022
40,2,2,1.68936276
40,2,3,0.69312793
40,2,4,-0.22523807
40,2,5,-0.189630136
40,2,6,0.638348699
40,2,7,1.23464906
40,2,8,0.802346945
40,2,9,-0.378765106
40,2,10,-1.24267554
40,2,11,-1.06022656
40,2,12,-0.205344185
40,2,13,0.24699761
40,2,14,-0.33496815
40,2,15,-1.46557331
40,2,16,-2.05184221
41,1,1,1.93382287
41,1,2,1.82956409
41,1,3,0.832568049
41,1,4,0.0287382975
41,1,5,0.281244248
41,1,6,1.27496469
41,1,7,1.86571193
41,1,8,1.34754038
41,1,9,0.23486194
41,1,10,-0.306669146
41,1,11,0.249678046
41,1,12,1.20906878
41,1,13,1.42513514
41,1,14,0.57003355
41,1,15,-0.501807749
41,1,16,-0.699022651
41,2,1,1.78786922
41,2,2,1.65902984
41,2,3,0.613887072
41,2,4,-0.259662539
41,2,5,-0.0955462828
41,2,6,0.794827342
41,2,7,1.27166331
41,2,8,0.633936524
41,2,9,-0.598665535
41,2,10,-1.25504231
41,2,11,-0.803037584
41,2,12,0.0677249581
41,2,13,0.21568884
41,2,14,-0.682752728
41,2,15,-1.769665
41,2,16,-1.95103848
42,1,1,1.94655836
42,1,2,1.79689777
42,1,3,0.754521132
42,1,4,0.00553541631
42,1,5,0.387658477
42,1,6,1.42206597
42,1,7,1.86720884
42,1,8,1.15439796
42,1,9,0.0456446931
42,1,10,-0.246698618
42,1,11,0.539180517
42,1,12,1.41253304
42,1,13,1.27601254
42,1,14,0.194913983
42,1,15,-0.677546084
42,1,16,-0.432522833
42,2,1,1.80060458
42,2,2,1.62636364
42,2,3,0.535840154
42,2,4,-0.282865405
42,2,5,0.0108679384
42,2,6,0.941928566
42,2,7,1.27316022
42,2,8,0.440794051
42,2,9,-0.787882745
42,2,10,-1.19507182
42,2,11,-0.513535142
42,2,12,0.271189213
42,2,13,0.0665661544
42,2,14,-1.0578723
42,2,15,-1.94540334
42,2,16,-1.6845386
43,1,1,1.95863152
43,1,2,1.76199639
43,1,3,0.678187788
43,1,4,-0.00616347417
43,1,5,0.504480958
43,1,6,1.55595589
43,1,7,1.83317077
43,1,8,0.945563614
43,1,9,-0.101690173
43,1,10,-0.118672311
43,1,11,0.83568424
43,1,12,1.52528167
43,1,13,1.02741849
43,1,14,-0.154331744
43,1,15,-0.696279287
43,1,16,-0.0492059998
43,2,1,1.81267786
43,2,2,1.59146225
43,2,3,0.459506869
43,2,4,-0.294564307
43,2,5,0.12769042
43,2,6,1.07581842
43,2,7,1.23912215
43,2,8,0.231959745
43,2,9,-0.935217619
43,2,10,-1.06704545
43,2,11,-0.217031404
43,2,12,0.383937776
43,2,13,-0.182027891
43,2,14,-1.40711796
43,2,15,-1.96413648
43,2,16,-1.30122173
44,1,1,1.97003436
44,1,2,1.72496462
44,1,3,0.60407573
44,1,4,-0.00621012971
44,1,5,0.629599333
44,1,6,1.67314839
44,1,7,1.76484752
44,1,8,0.730808973
44,1,9,-0.198409304
44,1,10,0.0681867748
44,1,11,1.11326289
44,1,12,1.5356636
44,1,13,0.709850013
44,1,14,-0.428155571
44,1,15,-0.554808438
44,1,16,0.380542725
44,2,1,1.82408071
44,2,2,1.55443037
44,2,3,0.385394752
44,2,4,-0.294610977
44,2,5,0.252808869
44,2,6,1.19301093
44,2,7,1.1707989
44,2,8,0.0172050744
44,2,9,-1.03193676
44,2,10,-0.880186379
44,2,11,0.0605472028
44,2,12,0.394319713
44,2,13,-0.499596357
44,2,14,-1.68094194
44,2,15,-1.82266557
44,2,16,-0.871473014
45,1,1,1.9807595
45,1,2,1.68591368
45,1,3,0.532678723
45,1,4,0.0054077208
45,1,5,0.760751486
45,1,6,1.77059436
45,1,7,1.66471374
45,1,8,0.52018106
45,1,9,-0.238759309
45,1,10,0.300385922
45,1,11,1.34764957
45,1,12,1.44270015
45,1,13,0.362229317
45,1,14,-0.587675452
45,1,15,-0.275904208
45,1,16,0.77778995
45,2,1,1.83480573
45,2,2,1.51537943
45,2,3,0.313997686
45,2,4,-0.282993138
45,2,5,0.383960903
45,2,6,1.29045689
45,2,7,1.07066512
45,2,8,-0.193422839
45,2,9,-1.07228684
45,2,10,-0.647987187
45,2,11,0.294933856
45,2,12,0.301356256
45,2,13,-0.847217023
45,2,14,-1.84046173
45,2,15,-1.54376137
45,2,16,-0.474225819
46,1,1,1.99079955
46,1,2,1.64496028
46,1,3,0.464472532
46,1,4,0.0285661072
46,1,5,0.895563662
46,1,6,1.84576285
46,1,7,1.53637803
46,1,8,0.323534966
46,1,9,-0.220305696
46,1,10,0.561139047
46,1,11,1.51836908
46,1,12,1.25618923
46,1,13,0.027152732
46,1,14,-0.610184252
46,1,15,0.0953784138
46,1,16,1.0695858
46,2,1,1.84484577
46,2,2,1.47442615
46,2,3,0.24579154
46,2,4,-0.259834737
46,2,5,0.518773079
46,2,6,1.36562538
46,2,7,0.942329586
46,2,8,-0.390068918
46,2,9,-1.05383313
46,2,10,-0.387234122
46,2,11,0.465653419
46,2,12,0.11484544
46,2,13,-1.18229377
46,2,14,-1.86297059
46,2,15,-1.1724788
46,2,16,-0.18242994
47,1,1,2.00014806
47,1,2,1.60222745
47,1,3,0.399911582
47,1,4,0.0630062222
47,1,5,1.03159595
47,1,6,1.89670825
47,1,7,1.38445628
47,1,8,0.150074482
47,1,9,-0.144076109
47,1,10,0.831587315
47,1,11,1.61053014
47,1,12,0.995681286
47,1,13,-0.254316092
47,1,14,-0.4923563
47,1,15,0.499012291
47,1,16,1.20239449
47,2,1,1.85419428
47,2,2,1.4316932
47,2,3,0.18123059
47,2,4,-0.225394621
47,2,5,0.654805422
47,2,6,1.41657078
47,2,7,0.790407717
47,2,8,-0.563529432
47,2,9,-0.977603555
47,2,10,-0.116785824
47,2,11,0.557814479
47,2,12,-0.145662531
47,2,13,-1.46376252
47,2,14,-1.74514258
47,2,15,-0.768844903
47,2,16,-0.0496212989
48,1,1,2.00879884
48,1,2,1.55784261
48,1,3,0.339426816
48,1,4,0.108337708
48,1,5,1.16638637
48,1,6,1.92211974
48,1,7,1.21440434
48,1,8,0.00792390853
48,1,9,-0.0144997165
48,1,10,1.09216821
48,1,11,1.61613452
48,1,12,0.688443482
48,1,13,-0.447665334
48,1,14,-0.25071758
48,1,15,0.869724572
48,1,16,1.15194964
48,2,1,1.86284506
48,2,2,1.38730848
48,2,3,0.120745823
48,2,4,-0.180063128
48,2,5,0.789595842
48,2,6,1.44198227
48,2,7,0.620355785
48,2,8,-0.705680013
48,2,9,-0.84802717
48,2,10,0.143795088
48,2,11,0.563418865
48,2,12,-0.45290041
48,2,13,-1.65711164
48,2,14,-1.5035038
48,2,15,-0.398132563
48,2,16,-0.100066192
49,1,1,2.01674652
49,1,2,1.51193821
49,1,3,0.283422381
49,1,4,0.164043158
49,1,5,1.29749525
49,1,6,1.9213568
49,1,7,1.03232813
49,1,8,-0.0962509885
49,1,9,0.160853416
49,1,10,1.32403553
49,1,11,1.53477824
49,1,12,0.366615862
49,1,13,-0.529148996
49,1,14,0.0806862637
49,1,15,1.14757955
49,1,16,0.927720904
49,2,1,1.87079275
49,2,2,1.34140396
49,2,3,0.064741388
49,2,4,-0.124357693
49,2,5,0.920704782
49,2,6,1.44121933
49,2,7,0.438279569
49,2,8,-0.809854925
49,2,9,-0.67267406
49,2,10,0.375662386
49,2,11,0.482062638
49,2,12,-0.774728
49,2,13,-1.73859549
49,2,14,-1.17210007
49,2,15,-0.120277636
49,2,16,-0.324294806
50,1,1,2.02398562
50,1,2,1.4646517
50,1,3,0.232272416
50,1,4,0.229483396
50,1,5,1.42255044
50,1,6,1.89446568
50,1,7,0.84476018
50,1,8,-0.157551616
50,1,9,0.371718019
50,1,10,1.51042771
50,1,11,1.37368703
50,1,12,0.0638563037
50,1,13,-0.488688141
50,1,14,0.455113977
50,1,15,1.28769505
50,1,16,0.571175575
50,2,1,1.87803185
50,2,2,1.29411757
50,2,3,0.0135914236
50,2,4,-0.0589174479
50,2,5,1.0457598
50,2,6,1.41432822
50,2,7,0.25071162
50,2,8,-0.871155441
50,2,9,-0.461809456
50,2,10,0.562054515
50,2,11,0.32097137
50,2,12,-1.07748759
50,2,13,-1.69813454
50,2,14,-0.797672272
50,2,15,0.0198378116
50,2,16,-0.680840194
51,1,1,2.03051186
51,1,2,1.41612387
51,1,3,0.186320052
51,1,4,0.303906262
51,1,5,1.53928971
51,1,6,1.84217846
51,1,7,0.658429563
51,1,8,-0.173077241
51,1,9,0.605738103
51,1,10,1.63788462
51,1,11,1.14708304
51,1,12,-0.18815954
51,1,13,-0.331104875
51,1,14,0.819736898
51,1,15,1.26751781
51,1,16,0.148137435
51,2,1,1.88455808
51,2,2,1.24558961
51,2,3,-0.0323609412
51,2,4,0.0155054033
51,2,5,1.16249907
51,2,6,1.362041
51,2,7,0.0643810034
51,2,8,-0.88668108
51,2,9,-0.227789417
51,2,10,0.689511538
51,2,11,0.0943673551
51,2,12,-1.32950342
51,2,13,-1.5405513
51,2,14,-0.43304944
51,2,15,-0.000339359045
51,2,16,-1.10387826
52,1,1,2.03632116
52,1,2,1.36649942
52,1,3,0.145873606
52,1,4,0.386454403
52,1,5,1.64560282
52,1,6,1.76589334
52,1,7,0.480020523
52,1,8,-0.142058313
52,1,9,0.849194288
52,1,10,1.69722545
52,1,11,0.874933898
52,1,12,-0.363052428
52,1,13,-0.0755311251
52,1,14,1.12311447
52,1,15,1.09048128
52,1,16,-0.263327301
52,2,1,1.89036739
52,2,2,1.19596529
52,2,3,-0.0728073865
52,2,4,0.0980535597
52,2,5,1.26881218
52,2,6,1.28575587
52,2,7,-0.114028022
52,2,8,-0.855662167
52,2,9,0.0156668127
52,2,10,0.748852313
52,2,11,-0.177781776
52,2,12,-1.50439632
52,2,13,-1.28497756
52,2,14,-0.129671827
52,2,15,-0.177375928
52,2,16,-1.51534307
53,1,1,2.04141021
53,1,2,1.31592631
53,1,3,0.111205116
53,1,4,0.476175666
53,1,5,1.73956943
53,1,6,1.66763747
53,1,7,0.315937221
53,1,8,-0.0658928603
53,1,9,1.08781183
53,1,10,1.68421447
53,1,11,0.581205547
53,1,12,-0.442482531
53,1,13,0.246930584
53,1,14,1.32246661
53,1,15,0.785448015
53,1,16,-0.587283194
53,2,1,1.89545643
53,2,2,1.14539218
53,2,3,-0.107475877
53,2,4,0.187774822
53,2,5,1.3627789
53,2,6,1.1875
53,2,7,-0.278111309
53,2,8,-0.779496789
53,2,9,0.254284322
53,2,10,0.735841274
53,2,11,-0.471510053
53,2,12,-1.58382642
53,2,13,-0.962515831
53,2,14,0.0696802735
53,2,15,-0.48240912
53,2,16,-1.83929884
54,1,1,2.04577565
54,1,2,1.2645551
54,1,3,0.082549423
54,1,4,0.572034121
54,1,5,1.81949449
54,1,6,1.55001628
54,1,7,0.172069818
54,1,8,0.0519190095
54,1,9,1.3076005
54,1,10,1.59986866
54,1,11,0.291756541
54,1,12,-0.418062836
54,1,13,0.596999705
54,1,14,1.38973391
54,1,15,0.402030498
54,1,16,-0.763905287
54,2,1,1.89982188
54,2,2,1.09402084
54,2,3,-0.13613157
54,2,4,0.283633351
54,2,5,1.44270396
54,2,6,1.06987882
54,2,7,-0.421978712
54,2,8,-0.66168493
54,2,9,0.474073112
54,2,10,0.651495516
54,2,11,-0.760959148
54,2,12,-1.55940676
54,2,13,-0.612446666
54,2,14,0.136947647
54,2,15,-0.865826666
54,2,16,-2.01592088
55,1,1,2.04941511
55,1,2,1.21253872
55,1,3,0.0601010732
55,1,4,0.672922373
55,1,5,1.88393903
55,1,6,1.41614187
55,1,7,0.0535880737
55,1,8,0.205937609
55,1,9,1.49567926
55,1,10,1.45038474
55,1,11,0.0320706181
55,1,12,-0.292235941
55,1,13,0.932027817
55,1,14,1.31554186
55,1,15,0.00254833326
55,1,16,-0.76049304
55,2,1,1.90346134
55,2,2,1.04200459
55,2,3,-0.158579916
55,2,4,0.384521544
55,2,5,1.5071485
55,2,6,0.93600446
55,2,7,-0.540460467
55,2,8,-0.50766629
55,2,9,0.662151814
55,2,10,0.502011538
55,2,11,-1.02064502
55,2,12,-1.4335798
55,2,13,-0.277418613
55,2,14,0.0627554953
55,2,15,-1.26530886
55,2,16,-2.01250887
56,1,1,2.05232692
56,1,2,1.16003191
56,1,3,0.0440141484
56,1,4,0.777674437
56,1,5,1.93174577
56,1,6,1.26955223
56,1,7,-0.0352445915
56,1,8,0.389037997
56,1,9,1.64103365
56,1,10,1.24668849
56,1,11,-0.174982727
56,1,12,-0.0780156925
56,1,13,1.21120346
56,1,14,1.1105262
56,1,15,-0.348075867
56,1,16,-0.577489495
56,2,1,1.90637314
56,2,2,0.989497721
56,2,3,-0.174666852
56,2,4,0.489273608
56,2,5,1.55495524
56,2,6,0.789414883
56,2,7,-0.629293084
56,2,8,-0.324565887
56,2,9,0.807506263
56,2,10,0.298315465
56,2,11,-1.22769856
56,2,12,-1.21935964
56,2,13,0.00175707042
56,2,14,-0.142260104
56,2,15,-1.61593318
56,2,16,-1.82950532
57,1,1,2.0545094
57,1,2,1.10719144
57,1,3,0.0344010666
57,1,4,0.885078013
57,1,5,1.96206188
57,1,6,1.11412191
57,1,7,-0.0912215635
57,1,8,0.592738628
57,1,9,1.73516393
57,1,10,1.00364053
57,1,11,-0.311147034
57,1,12,0.202363491
57,1,13,1.40053558
57,1,14,0.80383426
57,1,15,-0.592835486
57,1,16,-0.248403251
57,2,1,1.90855587
57,2,2,0.936657369
57,2,3,-0.184279919
57,2,4,0.596677184
57,2,5,1.58527124
57,2,6,0.633984447
57,2,7,-0.685270131
57,2,8,-0.120865233
57,2,9,0.901636422
57,2,10,0.0552674085
57,2,11,-1.36386275
57,2,12,-0.938980341
57,2,13,0.191089258
57,2,14,-0.448952019
57,2,15,-1.86069262
57,2,16,-1.50041902
58,1,1,2.05596185
58,1,2,1.0541743
58,1,3,0.0313314386
58,1,4,0.99389118
58,1,5,1.97435248
58,1,6,0.95395422
58,1,7,-0.112310037
58,1,8,0.807601094
58,1,9,1.7725873
58,1,10,0.73895961
58,1,11,-0.364389628
58,1,12,0.519772649
58,1,13,1.47701514
58,1,14,0.438994348
58,1,15,-0.691891193
58,1,16,0.166364774
58,2,1,1.91000807
58,2,2,0.88364023
58,2,3,-0.187349558
58,2,4,0.705490351
58,2,5,1.59756196
58,2,6,0.473816812
58,2,7,-0.706358552
58,2,8,0.0939972103
58,2,9,0.939059794
58,2,10,-0.209413543
58,2,11,-1.41710532
58,2,12,-0.621571243
58,2,13,0.267568707
58,2,14,-0.81379199
58,2,15,-1.95974827
58,2,16,-1.08565104
59,1,1,2.05668402
59,1,2,1.00113833
59,1,3,0.0348320901
59,1,4,1.10285509
59,1,5,1.96841156
59,1,6,0.793277383
59,1,7,-0.0977217853
59,1,8,1.02366626
59,1,9,1.75115931
59,1,10,0.471934885
59,1,11,-0.329950839
59,1,12,0.841222525
59,1,13,1.4314189
59,1,14,0.0677617192
59,1,15,-0.62902236
59,1,16,0.590639234
59,2,1,1.91073024
59,2,2,0.830604136
59,2,3,-0.183848903
59,2,4,0.814454377
59,2,5,1.59162104
59,2,6,0.313139975
59,2,7,-0.691770375
59,2,8,0.310062349
59,2,9,0.917631924
59,2,10,-0.476438224
59,2,11,-1.38266659
59,2,12,-0.300121307
59,2,13,0.22197254
59,2,14,-1.18502462
59,2,15,-1.89687955
59,2,16,-0.661376536
60,1,1,2.05667567
60,1,2,0.948241293
60,1,3,0.0448864549
60,1,4,1.21070933
60,1,5,1.94436598
60,1,6,0.636335492
60,1,7,-0.0479414016
60,1,8,1.23091912
60,1,9,1.6722008
60,1,10,0.222024873
60,1,11,-0.210764959
60,1,12,1.13329709
60,1,13,1.26944089
60,1,14,-0.257205248
60,1,15,-0.414258897
60,1,16,0.946494579
60,2,1,1.91072214
60,2,2,0.77770716
60,2,3,-0.173794538
60,2,4,0.922308505
60,2,5,1.56757534
60,2,6,0.15619801
60,2,7,-0.641989887
60,2,8,0.517315209
60,2,9,0.838673353
60,2,10,-0.726348221
60,2,11,-1.26348066
60,2,12,-0.00804677606
60,2,13,0.0599944293
60,2,14,-1.50999153
60,2,15,-1.68211615
60,2,16,-0.30552116
61,1,1,2.05593801
61,1,2,0.895640671
61,1,3,0.0614351593
61,1,4,1.3162061
61,1,5,1.90267229
61,1,6,0.487271637
61,1,7,0.0352898203
61,1,8,1.41975474
61,1,9,1.54041898
61,1,10,0.00744860992
61,1,11,-0.017199818
61,1,12,1.36564851
61,1,13,1.01099408
61,1,14,-0.489788949
61,1,15,-0.0822532624
61,1,16,1.16860127
61,2,1,1.90998447
61,2,2,0.725106537
61,2,3,-0.15724583
61,2,4,1.02780521
61,2,5,1.52588165
61,2,6,0.00713421404
61,2,7,-0.558758736
61,2,8,0.706150889
61,2,9,0.706891596
61,2,10,-0.940924525
61,2,11,-1.06991553
61,2,12,0.22430478
61,2,13,-0.198452249
61,2,14,-1.74257529
61,2,15,-1.35011053
61,2,16,-0.0834143907
62,1,1,2.05447245
62,1,2,0.843493044
62,1,3,0.0843761116
62,1,4,1.41812539
62,1,5,1.84410918
62,1,6,0.350022733
62,1,7,0.149037674
62,1,8,1.5814265
62,1,9,1.36363184
62,1,10,-0.156144485
62,1,11,0.233847275
62,1,12,1.51415551
62,1,13,0.687778533
62,1,14,-0.596946061
62,1,15,0.31333071
62,1,16,1.2162534
62,2,1,1.90851867
62,2,2,0.67295891
62,2,3,-0.134304881
62,2,4,1.1297245
62,2,5,1.46731853
62,2,6,-0.130114675
62,2,7,-0.4450109
62,2,8,0.867822587
62,2,9,0.530104339
62,2,10,-1.1045177
62,2,11,-0.818868399
62,2,12,0.372811615
62,2,13,-0.521667838
62,2,14,-1.8497324
62,2,15,-0.954526424
62,2,16,-0.03576231
63,1,1,2.05228019
63,1,2,0.791953444
63,1,3,0.113564871
63,1,4,1.51528931
63,1,5,1.76976192
63,1,6,0.22821781
63,1,7,0.289278537
63,1,8,1.70845246
63,1,9,1.15230656
63,1,10,-0.256805032
63,1,11,0.520440936
63,1,12,1.56343579
63,1,13,0.339405805
63,1,14,-0.563375652
63,1,15,0.708526492
63,1,16,1.08086121
63,2,1,1.90632641
63,2,2,0.621419311
63,2,3,-0.105116121
63,2,4,1.2268883
63,2,5,1.3929714
63,2,6,-0.251919627
63,2,7,-0.304769993
63,2,8,0.994848549
63,2,9,0.318779051
63,2,10,-1.20517814
63,2,11,-0.532274723
63,2,12,0.422091961
63,2,13,-0.870040596
63,2,14,-1.81616199
63,2,15,-0.559330642
63,2,16,-0.171154618
64,1,1,2.04936385
64,1,2,0.74117583
64,1,3,0.148816437
64,1,4,1.60657382
64,1,5,1.68100548
64,1,6,0.125078291
64,1,7,0.451044381
64,1,8,1.79496276
64,1,9,0.91894418
64,1,10,-0.28715089
64,1,11,0.817520797
64,1,12,1.50845671
64,1,13,0.00856692344
64,1,14,-0.393684238
64,1,15,1.03942919
64,1,16,0.787535608
64,2,1,1.90341008
64,2,2,0.570641756
64,2,3,-0.0698645487
64,2,4,1.31817305
64,2,5,1.30421484
64,2,6,-0.355059147
64,2,7,-0.143004149
64,2,8,1.08135879
64,2,9,0.0854166597
64,2,10,-1.23552406
64,2,11,-0.235194862
64,2,12,0.367112875
64,2,13,-1.20087957
64,2,14,-1.64647067
64,2,15,-0.228427917
64,2,16,-0.464480162
65,1,1,2.04572606
65,1,2,0.69131124
65,1,3,0.189905941
65,1,4,1.69092572
65,1,5,1.57947528
65,1,6,0.0433363244
65,1,7,0.628596544
65,1,8,1.83697629
65,1,9,0.677342892
65,1,10,-0.244906664
65,1,11,1.09911168
65,1,12,1.35505378
65,1,13,-0.264194965
65,1,14,-0.111738272
65,1,15,1.25255692
65,1,16,0.390462577
65,2,1,1.89977252
65,2,2,0.520777047
65,2,3,-0.0287750587
65,2,4,1.40252495
65,2,5,1.20268464
65,2,6,-0.436801076
65,2,7,0.0345479995
65,2,8,1.12337232
65,2,9,-0.156184584
65,2,10,-1.19327986
65,2,11,0.0463959724
65,2,12,0.213709876
65,2,13,-1.4736414
65,2,14,-1.3645246
65,2,15,-0.0153002292
65,2,16,-0.861553133
66,1,1,2.04137087
66,1,2,0.64250809
66,1,3,0.236569464
66,1,4,1.76737165
66,1,5,1.46704221
66,1,6,-0.0148361921
66,1,7,0.815635324
66,1,8,1.83258295
66,1,9,0.44178623
66,1,10,-0.133067369
66,1,11,1.34059691
66,1,12,1.11932802
66,1,13,-0.445431709
66,1,14,0.24271737
66,1,15,1.31352067
66,1,16,-0.0370721072
66,2,1,1.89541709
66,2,2,0.471973956
66,2,3,0.0178884715
66,2,4,1.47897089
66,2,5,1.09025156
66,2,6,-0.4949736
66,2,7,0.221586779
66,2,8,1.1189791
66,2,9,-0.391741216
66,2,10,-1.08144045
66,2,11,0.287881136
66,2,12,-0.0220159441
66,2,13,-1.65487802
66,2,14,-1.01006889
66,2,15,0.0456634015
66,2,16,-1.28908789
67,1,1,2.03630161
67,1,2,0.594911993
67,1,3,0.288507581
67,1,4,1.83503056
67,1,5,1.34577286
67,1,6,-0.0478871912
67,1,7,1.00552177
67,1,8,1.78203392
67,1,9,0.226202562
67,1,10,0.0403213054
67,1,11,1.52087402
67,1,12,0.825959325
67,1,13,-0.51287508
67,1,14,0.619679332
67,1,15,1.21259832
67,1,16,-0.416174531
67,2,1,1.89034784
67,2,2,0.424377859
67,2,3,0.0698266029
67,2,4,1.54662967
67,2,5,0.968982279
67,2,6,-0.528024614
67,2,7,0.411473274
67,2,8,1.06843007
67,2,9,-0.607324898
67,2,10,-0.908051848
67,2,11,0.468158424
67,2,12,-0.315384477
67,2,13,-1.72232151
67,2,14,-0.633106887
67,2,15,-0.0552588701
67,2,16,-1.66819036
68,1,1,2.03052282
68,1,2,0.548664927
68,1,3,0.345384985
68,1,4,1.89312422
68,1,5,1.21789861
68,1,6,-0.0549228489
68,1,7,1.1915164
68,1,8,1.68772995
68,1,9,0.04334113
68,1,10,0.262741089
68,1,11,1.62421644
68,1,12,0.50564456
68,1,13,-0.458163768
68,1,14,0.965962052
68,1,15,0.966314197
68,1,16,-0.676867127
68,2,1,1.88456905
68,2,2,0.378130853
68,2,3,0.126703992
68,2,4,1.60472345
68,2,5,0.841108024
68,2,6,-0.535060287
68,2,7,0.59746784
68,2,8,0.974126041
68,2,9,-0.790186346
68,2,10,-0.68563205
68,2,11,0.571500719
68,2,12,-0.635699272
68,2,13,-1.66761017
68,2,14,-0.286824226
68,2,15,-0.301542997
68,2,16,-1.92888284
69,1,1,2.02403975
69,1,2,0.503904879
69,1,3,0.406834841
69,1,4,1.94098604
69,1,5,1.08576727
69,1,6,-0.0357325822
69,1,7,1.36701536
69,1,8,1.55410862
69,1,9,-0.0959703475
69,1,10,0.518119454
69,1,11,1.6416434
69,1,12,0.191884413
69,1,13,-0.287859201
69,1,14,1.23271477
69,1,15,0.614756465
69,1,16,-0.770971775
69,2,1,1.87808597
69,2,2,0.333370745
69,2,3,0.188153848
69,2,4,1.65258515
69,2,5,0.708976805
69,2,6,-0.515869975
69,2,7,0.772966862
69,2,8,0.840504766
69,2,9,-0.929497778
69,2,10,-0.430253685
69,2,11,0.588927746
69,2,12,-0.949459434
69,2,13,-1.49730563
69,2,14,-0.0200714767
69,2,15,-0.653100669
69,2,16,-2.0229876
70,1,1,2.01685739
70,1,2,0.460765481
70,1,3,0.47246021
70,1,4,1.97806883
70,1,5,0.951808393
70,1,6,0.00920658559
70,1,7,1.52579284
70,1,8,1.38743949
70,1,9,-0.183472931
70,1,10,0.787984431
70,1,11,1.57171464
70,1,12,-0.0825033858
70,1,13,-0.0226492956
70,1,14,1.38234365
70,1,15,0.215079874
70,1,16,-0.680979729
70,2,1,1.87090361
70,2,2,0.290231347
70,2,3,0.253779233
70,2,4,1.68966794
70,2,5,0.575017869
70,2,6,-0.470930815
70,2,7,0.931744277
70,2,8,0.673835576
70,2,9,-1.01700044
70,2,10,-0.160388723
70,2,11,0.518998981
70,2,12,-1.22384727
70,2,13,-1.23209572
70,2,14,0.129557356
70,2,15,-1.05277729
70,2,16,-1.93299544
71,1,1,2.00898194
71,1,2,0.419375479
71,1,3,0.541835904
71,1,4,2.00395131
71,1,5,0.81848079
71,1,6,0.0787412599
71,1,7,1.66221797
71,1,8,1.1955291
71,1,9,-0.213954508
71,1,10,1.05281937
71,1,11,1.42065203
71,1,12,-0.288801789
71,1,13,0.305184782
71,1,14,1.39382195
71,1,15,-0.167760044
71,1,16,-0.423273027
71,2,1,1.86302817
71,2,2,0.24884133
71,2,3,0.323154926
71,2,4,1.71555054
71,2,5,0.441690266
71,2,6,-0.401396155
71,2,7,1.06816947
71,2,8,0.481925249
71,2,9,-1.04748201
71,2,10,0.104446217
71,2,11,0.367936373
71,2,12,-1.43014562
71,2,13,-0.904261589
71,2,14,0.141035601
71,2,15,-1.43561721
71,2,16,-1.67528868
72,1,1,2.00042009
72,1,2,0.379859179
72,1,3,0.61451292
72,1,4,2.01834297
72,1,5,0.688235641
72,1,6,0.171073407
72,1,7,1.77145875
72,1,8,0.987362862
72,1,9,-0.185562164
72,1,10,1.29346561
72,1,11,1.2017988
72,1,12,-0.405398101
72,1,13,0.655709505
72,1,14,1.26566637
72,1,15,-0.471538514
72,1,16,-0.0451140031
72,2,1,1.8544662
72,2,2,0.20932503
72,2,3,0.395831943
72,2,4,1.72994208
72,2,5,0.311445177
72,2,6,-0.309064031
72,2,7,1.17741024
72,2,8,0.273758948
72,2,9,-1.0190897
72,2,10,0.345092475
72,2,11,0.149083212
72,2,12,-1.54674196
72,2,13,-0.553736866
72,2,14,0.0128801018
72,2,15,-1.73939574
72,2,16,-1.29712987
73,1,1,1.99117827
73,1,2,0.342334598
73,1,3,0.6900208
73,1,4,2.02108717
73,1,5,0.563464284
73,1,6,0.283807248
73,1,7,1.84965158
73,1,8,0.772680163
73,1,9,-0.0999089777
73,1,10,1.49252748
73,1,11,0.934441686
73,1,12,-0.420030802
73,1,13,0.986220717
73,1,14,1.01614988
73,1,15,-0.646843553
73,1,16,0.384062439
73,2,1,1.84522462
73,2,2,0.171800449
73,2,3,0.471339762
73,2,4,1.7326864
73,2,5,0.186673775
73,2,6,-0.196330175
73,2,7,1.25560296
73,2,8,0.0590762347
73,2,9,-0.933436453
73,2,10,0.544154346
73,2,11,-0.118274048
73,2,12,-1.56137466
73,2,13,-0.223225638
73,2,14,-0.236636385
73,2,15,-1.91470075
73,2,16,-0.867953241
74,1,1,1.98126447
74,1,2,0.306914389
74,1,3,0.767869055
74,1,4,2.01216412
74,1,5,0.446461737
74,1,6,0.414009631
74,1,7,1.8940419
74,1,8,0.561524808
74,1,9,0.0380222052
74,1,10,1.6356225
74,1,11,0.642128468
74,1,12,-0.331069589
74,1,13,1.25645423
74,1,14,0.6807127
74,1,15,-0.665095329
74,1,16,0.785428345
74,2,1,1.83531082
74,2,2,0.13638024
74,2,3,0.549188077
74,2,4,1.72376311
74,2,5,0.0696711838
74,2,6,-0.0661278069
74,2,7,1.29999328
74,2,8,-0.152079076
74,2,9,-0.795505226
74,2,10,0.687249482
74,2,11,-0.410587251
74,2,12,-1.47241354
74,2,13,0.0470078886
74,2,14,-0.572073579
74,2,15,-1.93295252
74,2,16,-0.466587365
75,1,1,1.97068655
75,1,2,0.273704767
75,1,3,0.847553194
75,1,4,1.99168897
75,1,5,0.339378536
75,1,6,0.558291137
75,1,7,1.90308177
75,1,8,0.3637757
75,1,9,0.220168948
75,1,10,1.71243608
75,1,11,0.350591779
75,1,12,-0.147686422
75,1,13,1.4335165
75,1,14,0.30695048
75,1,15,-0.523172796
75,1,16,1.0852766
75,2,1,1.82473278
75,2,2,0.103170618
75,2,3,0.628872216
75,2,4,1.70328808
75,2,5,-0.0374120027
75,2,6,0.0781537145
75,2,7,1.30903316
75,2,8,-0.349828184
75,2,9,-0.613358498
75,2,10,0.764062881
75,2,11,-0.70212388
75,2,12,-1.28903031
75,2,13,0.224070117
75,2,14,-0.945835829
75,2,15,-1.79102993
75,2,16,-0.166739121
76,1,1,1.95945311
76,1,2,0.242806032
76,1,3,0.92855674
76,1,4,1.95991325
76,1,5,0.244184986
76,1,6,0.712893069
76,1,7,1.87648404
76,1,8,0.188690379
76,1,9,0.435864151
76,1,10,1.71746349
76,1,11,0.0854962021
76,1,12,0.111103877
76,1,13,1.49589562
76,1,14,-0.0521191806
76,1,15,-0.243921563
76,1,16,1.22858608
76,2,1,1.81349933
76,2,2,0.0722718835
76,2,3,0.709875762
76,2,4,1.67151225
76,2,5,-0.132605553
76,2,6,0.232755646
76,2,7,1.28243542
76,2,8,-0.52491349
76,2,9,-0.397663295
76,2,10,0.769090235
76,2,11,-0.967219472
76,2,12,-1.03023994
76,2,13,0.286449134
76,2,14,-1.30490553
76,2,15,-1.51177871
76,2,16,-0.0234296918
77,1,1,1.94757247
77,1,2,0.214310855
77,1,3,1.01035309
77,1,4,1.91721869
77,1,5,0.16263631
77,1,6,0.87378329
77,1,7,1.81523311
77,1,8,0.0444656834
77,1,9,0.672470629
77,1,10,1.6504122
77,1,11,-0.129808754
77,1,12,0.418419272
77,1,13,1.43609118
77,1,14,-0.345558554
77,1,15,0.127551705
77,1,16,1.18915951
77,2,1,1.80161881
77,2,2,0.0437767059
77,2,3,0.791672051
77,2,4,1.6288178
77,2,5,-0.214154243
77,2,6,0.393645883
77,2,7,1.22118449
77,2,8,-0.669138253
77,2,9,-0.161056817
77,2,10,0.702039063
77,2,11,-1.18252456
77,2,12,-0.72292459
77,2,13,0.226644889
77,2,14,-1.59834492
77,2,15,-1.14030552
77,2,16,-0.0628562495
78,1,1,1.9350549
78,1,2,0.188305944
78,1,3,1.09241176
78,1,4,1.86411655
78,1,5,0.0962365642
78,1,6,1.03676736
78,1,7,1.7215513
78,1,8,-0.0621330366
78,1,9,0.916113317
78,1,10,1.51622236
78,1,11,-0.276347846
78,1,12,0.742322445
78,1,13,1.26153362
78,1,14,-0.531710327
78,1,15,0.531184435
78,1,16,0.974440098
78,2,1,1.78910112
78,2,2,0.0177717954
78,2,3,0.873730719
78,2,4,1.57571578
78,2,5,-0.280553997
78,2,6,0.556630015
78,2,7,1.12750268
78,2,8,-0.775736868
78,2,9,0.0825858265
78,2,10,0.567849159
78,2,11,-1.32906353
78,2,12,-0.399021447
78,2,13,0.0520872623
78,2,14,-1.78449667
78,2,15,-0.736672699
78,2,16,-0.277575672
79,1,1,1.92190945
79,1,2,0.164869666
79,1,3,1.17420065
79,1,4,1.80123746
79,1,5,0.0462155864
79,1,6,1.19759595
79,1,7,1.59881699
79,1,8,-0.126097023
79,1,9,1.15250993
79,1,10,1.32471049
79,1,11,-0.341174603
79,1,12,1.04914689
79,1,13,0.993672788
79,1,14,-0.584100008
79,1,15,0.901705503
79,1,16,0.624138772
79,2,1,1.77595568
79,2,2,-0.00566448271
79,2,3,0.955519617
79,2,4,1.51283658
79,2,5,-0.33057493
79,2,6,0.717458606
79,2,7,1.00476837
79,2,8,-0.839700937
79,2,9,0.318982482
79,2,10,0.376337469
79,2,11,-1.39389038
79,2,12,-0.0921969339
79,2,13,-0.215773642
79,2,14,-1.83688641
79,2,15,-0.366151631
79,2,16,-0.627876937
80,1,1,1.9081471
80,1,2,0.144073844
80,1,3,1.25518811
80,1,4,1.72932851
80,1,5,0.0135030225
80,1,6,1.35207343
80,1,7,1.45144582
80,1,8,-0.14440006
80,1,9,1.36779773
80,1,10,1.08985126
80,1,11,-0.318514943
80,1,12,1.30700171
80,1,13,0.665356815
80,1,14,-0.495174468
80,1,15,1.17921126
80,1,16,0.202936277
80,2,1,1.76219344
80,2,2,-0.0264602974
80,2,3,1.03650701
80,2,4,1.44092762
80,2,5,-0.363287508
80,2,6,0.871936023
80,2,7,0.857397258
80,2,8,-0.858003914
80,2,9,0.534270287
80,2,10,0.141478106
80,2,11,-1.37123072
80,2,12,0.165657863
80,2,13,-0.544089556
80,2,14,-1.74796081
80,2,15,-0.0886458829
80,2,16,-1.04907954
81,1,1,1.89377844
81,1,2,0.125981763
81,1,3,1.334849
81,1,4,1.64923966
81,1,5,-0.00128595531
81,1,6,1.49617374
81,1,7,1.28473175
81,1,8,-0.11614345
81,1,9,1.54936349
81,1,10,0.828771532
81,1,11,-0.210268185
81,1,12,1.48910725
81,1,13,0.316826046
81,1,14,-0.277371109
81,1,15,1.31887341
81,1,16,-0.211445853
81,2,1,1.74782467
81,2,2,-0.0445523858
81,2,3,1.1161679
81,2,4,1.36083865
81,2,5,-0.378076494
81,2,6,1.01603627
81,2,7,0.690683126
81,2,8,-0.829747319
81,2,9,0.715835989
81,2,10,-0.119601607
81,2,11,-1.2629838
81,2,12,0.347763419
81,2,13,-0.892620325
81,2,14,-1.53015733
81,2,15,0.0510161519
81,2,16,-1.46346164
82,1,1,1.87881434
82,1,2,0.110649377
82,1,3,1.41266668
82,1,4,1.5619179
82,1,5,0.00213631988
82,1,6,1.62614262
82,1,7,1.10466111
82,1,8,-0.0425961316
82,1,9,1.68657339
82,1,10,0.560495496
82,1,11,-0.0258450806
82,1,12,1.57658041
82,1,13,-0.00921455026
82,1,14,0.0386366546
82,1,15,1.29821467
82,1,16,-0.542531013
82,2,1,1.73286057
82,2,2,-0.0598847717
82,2,3,1.19398558
82,2,4,1.27351713
82,2,5,-0.374654233
82,2,6,1.14600515
82,2,7,0.510612667
82,2,8,-0.756200016
82,2,9,0.853046
82,2,10,-0.387877643
82,2,11,-1.07856083
82,2,12,0.435236514
82,2,13,-1.21866107
82,2,14,-1.21414971
82,2,15,0.0303575546
82,2,16,-1.79454684
83,1,1,1.86326694
83,1,2,0.0981245488
83,1,3,1.48813581
83,1,4,1.46839595
83,1,5,0.023725614
83,1,6,1.73859465
83,1,7,0.917695284
83,1,8,0.0728622526
83,1,9,1.77141023
83,1,10,0.304576874
83,1,11,0.218663558
83,1,12,1.56040382
83,1,13,-0.272807539
83,1,14,0.408285618
83,1,15,1.12074721
83,1,16,-0.729180157
83,2,1,1.71731317
83,2,2,-0.0724096
83,2,3,1.26945484
83,2,4,1.17999518
83,2,5,-0.353064924
83,2,6,1.25845718
83,2,7,0.323646784
83,2,8,-0.640741646
83,2,9,0.937882721
83,2,10,-0.643796265
83,2,11,-0.834052086
83,2,12,0.419059992
83,2,13,-1.48225391
83,2,14,-0.844500661
83,2,15,-0.147110015
83,2,16,-1.98119593
84,1,1,1.84714794
84,1,2,0.0884464905
84,1,3,1.56076789
84,1,4,1.36977553
84,1,5,0.0631068274
84,1,6,1.8306067
84,1,7,0.730541646
84,1,8,0.224903703
84,1,9,1.79893637
84,1,10,0.0796651766
84,1,11,0.501890242
84,1,12,1.44236827
84,1,13,-0.441621363
84,1,14,0.779422939
84,1,15,0.815399706
84,1,16,-0.736849844
84,2,1,1.70119429
84,2,2,-0.0820876583
84,2,3,1.34208691
84,2,4,1.08137465
84,2,5,-0.313683689
84,2,6,1.35046923
84,2,7,0.136493102
84,2,8,-0.488700211
84,2,9,0.965408981
84,2,10,-0.868707955
84,2,11,-0.550825417
84,2,12,0.301024437
84,2,13,-1.65106785
84,2,14,-0.47336334
84,2,15,-0.452457428
84,2,16,-1.98886573
85,1,1,1.83047044
85,1,2,0.0816466287
85,1,3,1.63009143
85,1,4,1.26722157
85,1,5,0.119579561
85,1,6,1.89978993
85,1,7,0.549913764
85,1,8,0.406491905
85,1,9,1.76759088
85,1,10,-0.0978348181
85,1,11,0.799074769
85,1,12,1.23488665
85,1,13,-0.494909406
85,1,14,1.09968698
85,1,15,0.431837201
85,1,16,-0.563943803
85,2,1,1.68451667
85,2,2,-0.0888875201
85,2,3,1.41141033
85,2,4,0.978820741
85,2,5,-0.25721097
85,2,6,1.41965246
85,2,7,-0.0441347733
85,2,8,-0.307111979
85,2,9,0.934063494
85,2,10,-1.04620802
85,2,11,-0.25364089
85,2,12,0.0935427994
85,2,13,-1.70435584
85,2,14,-0.153099358
85,2,15,-0.836019933
85,2,16,-1.81595957
86,1,1,1.81324661
86,1,2,0.0777476057
86,1,3,1.69565797
86,1,4,1.16194129
86,1,5,0.192133158
86,1,6,1.94435549
86,1,7,0.382295936
86,1,8,0.609220505
86,1,9,1.67927837
86,1,10,-0.214965969
86,1,11,1.08423293
86,1,12,0.959696293
86,1,13,-0.426037878
86,1,14,1.32390726
86,1,15,0.032407023
86,1,16,-0.242107421
86,2,1,1.66729295
86,2,2,-0.0927865431
86,2,3,1.47697687
86,2,4,0.873540461
86,2,5,-0.184657395
86,2,6,1.46421802
86,2,7,-0.211752623
86,2,8,-0.104383372
86,2,9,0.845750928
86,2,10,-1.16333914
86,2,11,0.0315171927
86,2,12,-0.181647539
86,2,13,-1.63548434
86,2,14,0.0711209327
86,2,15,-1.23545015
86,2,16,-1.49412322
87,1,1,1.79549026
87,1,2,0.0767637864
87,1,3,1.75704336
87,1,4,1.05517745
87,1,5,0.27946189
87,1,6,1.96316028
87,1,7,0.233701915
87,1,8,0.823692024
87,1,9,1.53925586
87,1,10,-0.263150126
87,1,11,1.33242989
87,1,12,0.645592928
87,1,13,-0.243300289
87,1,14,1.4205091
87,1,15,-0.317982107
87,1,16,0.169587508
87,2,1,1.64953649
87,2,2,-0.0937703624
87,2,3,1.53836226
87,2,4,0.766776681
87,2,5,-0.0973286405
87,2,6,1.48302281
87,2,7,-0.360346615
87,2,8,0.110088125
87,2,9,0.705728531
87,2,10,-1.21152329
87,2,11,0.279714286
87,2,12,-0.495750964
87,2,13,-1.45274675
87,2,14,0.167722777
87,2,15,-1.58583939
87,2,16,-1.08242822
88,1,1,1.77721488
88,1,2,0.0787009448
88,1,3,1.8138504
88,1,4,0.948186636
88,1,5,0.379992247
88,1,6,1.95573735
88,1,7,0.109472081
88,1,8,1.03996921
88,1,9,1.35582864
88,1,10,-0.238817349
88,1,11,1.52198076
88,1,12,0.325435042
88,1,13,0.0310982615
88,1,14,1.37596476
88,1,15,-0.562358916
88,1,16,0.59553802
88,2,1,1.63126111
88,2,2,-0.091833204
88,2,3,1.59516931
88,2,4,0.659785807
88,2,5,0.0032016933
88,2,6,1.47559988
88,2,7,-0.484576464
88,2,8,0.326365352
88,2,9,0.522301137
88,2,10,-1.18719053
88,2,11,0.469265103
88,2,12,-0.81590879
88,2,13,-1.17834818
88,2,14,0.123178467
88,2,15,-1.83021617
88,2,16,-0.656477749
89,1,1,1.75843453
89,1,2,0.0835564137
89,1,3,1.86571264
89,1,4,0.84223038
89,1,5,0.49191004
89,1,6,1.92230749
89,1,7,0.0140761733
89,1,8,1.24802542
89,1,9,1.13985181
89,1,10,-0.143660843
89,1,11,1.63634038
89,1,12,0.0327070355
89,1,13,0.363753229
89,1,14,1.19671988
89,1,15,-0.660948396
89,1,16,0.957505882
89,2,1,1.61248076
89,2,2,-0.0869777352
89,2,3,1.64703166
89,2,4,0.553829551
89,2,5,0.115119502
89,2,6,1.44217002
89,2,7,-0.579972386
89,2,8,0.534421444
89,2,9,0.306324303
89,2,10,-1.09203398
89,2,11,0.583624601
89,2,12,-1.10863674
89,2,13,-0.845693111
89,2,14,-0.0560664088
89,2,15,-1.92880547
89,2,16,-0.294509828
90,1,1,1.73916388
90,1,2,0.091318801
90,1,3,1.9122963
90,1,4,0.73855865
90,1,5,0.613191366
90,1,6,1.86377382
90,1,7,-0.0490478128
90,1,8,1.43821645
90,1,9,0.904103637
90,1,10,0.0154821426
90,1,11,1.66556406
90,1,12,-0.201966032
90,1,13,0.714143991
90,1,14,0.908270299
90,1,15,-0.597602665
90,1,16,1.18903458
90,2,1,1.5932101
90,2,2,-0.0792153478
90,2,3,1.69361532
90,2,4,0.450157821
90,2,5,0.236400828
90,2,6,1.38363636
90,2,7,-0.643096387
90,2,8,0.724612534
90,2,9,0.0705761611
90,2,10,-0.932891011
90,2,11,0.612848341
90,2,12,-1.34331
90,2,13,-0.495302379
90,2,14,-0.344515979
90,2,15,-1.8654598
90,2,16,-0.0629811883
91,1,1,1.71941745
91,1,2,0.101968497
91,1,3,1.95330131
91,1,4,0.638391733
91,1,5,0.74164474
91,1,6,1.7816993
91,1,7,-0.0776102841
91,1,8,1.60173571
91,1,9,0.662519336
91,1,10,0.227132171
91,1,11,1.60717523
91,1,12,-0.354008466
91,1,13,1.03957725
91,1,14,0.551566064
91,1,15,-0.382431537
91,1,16,1.24768686
91,2,1,1.57346368
91,2,2,-0.0685656518
91,2,3,1.73462021
91,2,4,0.349990904
91,2,5,0.364854276
91,2,6,1.30156183
91,2,7,-0.671658814
91,2,8,0.888131917
91,2,9,-0.171008095
91,2,10,-0.721240938
91,2,11,0.554459512
91,2,12,-1.49535227
91,2,13,-0.16986911
91,2,14,-0.701220214
91,2,15,-1.6502887
91,2,16,-0.00432889163
92,1,1,1.69921052
92,1,2,0.115477182
92,1,3,1.98846471
92,1,4,0.542912602
92,1,5,0.874944508
92,1,6,1.67826307
92,1,7,-0.0705566034
92,1,8,1.73101223
92,1,9,0.429385066
92,1,10,0.47599268
92,1,11,1.46638501
92,1,12,-0.407464653
92,1,13,1.30041587
92,1,14,0.177215695
92,1,15,-0.0501516834
92,1,16,1.12284803
92,2,1,1.55325687
92,2,2,-0.0550569668
92,2,3,1.76978374
92,2,4,0.254511774
92,2,5,0.498153925
92,2,6,1.1981256
92,2,7,-0.664605141
92,2,8,1.01740837
92,2,9,-0.40414238
92,2,10,-0.472380459
92,2,11,0.413669407
92,2,12,-1.54880857
92,2,13,0.0909695774
92,2,14,-1.07557058
92,2,15,-1.3180089
92,2,16,-0.129167706
93,1,1,1.67855859
93,1,2,0.13180846
93,1,3,2.01756287
93,1,4,0.453245997
93,1,5,1.01067996
93,1,6,1.55620492
93,1,7,-0.0281027034
93,1,8,1.8200748
93,1,9,0.218482137
93,1,10,0.744071782
93,1,11,1.25563216
93,1,12,-0.356655896
93,1,13,1.46490908
93,1,14,-0.161687016
93,1,15,0.34552601
93,1,16,0.837683201
93,2,1,1.53260493
93,2,2,-0.0387256965
93,2,3,1.79888177
93,2,4,0.164845154
93,2,5,0.633889496
93,2,6,1.07606745
93,2,7,-0.622151196
93,2,8,1.10647094
93,2,9,-0.615045309
93,2,10,-0.204301387
93,2,11,0.202916488
93,2,12,-1.49799979
93,2,13,0.255462706
93,2,14,-1.41447341
93,2,15,-0.922331154
93,2,16,-0.414332509
94,1,1,1.65747774
94,1,2,0.150917292
94,1,3,2.04041004
94,1,4,0.370452106
94,1,5,1.14639282
94,1,6,1.41875517
94,1,7,0.0482713655
94,1,8,1.86482108
94,1,9,0.0422897413
94,1,10,1.01197517
94,1,11,0.993497431
94,1,12,-0.206776321
94,1,13,1.51308382
94,1,14,-0.417049825
94,1,15,0.740625262
94,1,16,0.444880307
94,2,1,1.51152396
94,2,2,-0.0196168497
94,2,3,1.82172918
94,2,4,0.0820512623
94,2,5,0.769602239
94,2,6,0.938617766
94,2,7,-0.545777202
94,2,8,1.1512171
94,2,9,-0.791237712
94,2,10,0.0636019856
94,2,11,-0.0592182055
94,2,12,-1.34812021
94,2,13,0.303637385
94,2,14,-1.66983604
94,2,15,-0.527231932
94,2,16,-0.807135463
95,1,1,1.63598347
95,1,2,0.172751144
95,1,3,2.05686378
95,1,4,0.295507967
95,1,5,1.2796284
95,1,6,1.26954567
95,1,7,0.155877307
95,1,8,1.86321414
95,1,9,-0.088762328
95,1,10,1.26032865
95,1,11,0.703064442
95,1,12,0.0266509205
95,1,13,1.4391737
95,1,14,-0.552609801
95,1,15,1.07125008
95,1,16,0.0169329345
95,2,1,1.49002981
95,2,2,0.00221699476
95,2,3,1.83818257
95,2,4,0.00710713863
95,2,5,0.902837813
95,2,6,0.789408326
95,2,7,-0.438171208
95,2,8,1.14961028
95,2,9,-0.922289789
95,2,10,0.311955452
95,2,11,-0.349651217
95,2,12,-1.11469293
95,2,13,0.229727313
95,2,14,-1.80539608
95,2,15,-0.196607053
95,2,16,-1.23508286
96,1,1,1.61409283
96,1,2,0.197248787
96,1,3,2.06682158
96,1,4,0.229301542
96,1,5,1.40797377
96,1,6,1.11251724
96,1,7,0.290910095
96,1,8,1.81537604
96,1,9,-0.166897446
96,1,10,1.47117031
96,1,11,0.409906
96,1,12,0.319393128
96,1,13,1.25233436
96,1,14,-0.549044609
96,1,15,1.28396928
96,1,16,-0.367182225
96,2,1,1.46813917
96,2,2,0.0267146379
96,2,3,1.8481406
96,2,4,-0.0590993017
96,2,5,1.03118312
96,2,6,0.63237983
96,2,7,-0.303138435
96,2,8,1.10177219
96,2,9,-1.00042498
96,2,10,0.522797167
96,2,11,-0.642809689
96,2,12,-0.821950734
96,2,13,0.042887941
96,2,14,-1.80183089
96,2,15,0.0161120445
96,2,16,-1.61919796
97,1,1,1.59182215
97,1,2,0.224341974
97,1,3,2.07022524
97,1,4,0.172616348
97,1,5,1.52910852
97,1,6,0.95181793
97,1,7,0.448584974
97,1,8,1.72357988
97,1,9,-0.187457576
97,1,10,1.62926805
97,1,11,0.139828607
97,1,12,0.641027808
97,1,13,0.975512505
97,1,14,-0.406719148
97,1,15,1.34445596
97,1,16,-0.636570871
97,2,1,1.44586837
97,2,2,0.0538078249
97,2,3,1.85154426
97,2,4,-0.115784496
97,2,5,1.152318
97,2,6,0.471680522
97,2,7,-0.145463586
97,2,8,1.00997603
97,2,9,-1.02098501
97,2,10,0.680894971
97,2,11,-0.912887037
97,2,12,-0.500316024
97,2,13,-0.233933896
97,2,14,-1.65950549
97,2,15,0.0765988529
97,2,16,-1.88858664
98,1,1,1.56918848
98,1,2,0.253954232
98,1,3,2.0670588
98,1,4,0.126126647
98,1,5,1.64084101
98,1,6,0.791689634
98,1,7,0.623313904
98,1,8,1.59214747
98,1,9,-0.149173081
98,1,10,1.72321403
98,1,11,-0.0833857059
98,1,12,0.958124876
98,1,13,0.642655015
98,1,14,-0.145624161
98,1,15,1.24306846
98,1,16,-0.741449952
98,2,1,1.4232347
98,2,2,0.0834200829
98,2,3,1.8483777
98,2,4,-0.162274197
98,2,5,1.26405048
98,2,6,0.311552227
98,2,7,0.0292653888
98,2,8,0.878543556
98,2,9,-0.982700527
98,2,10,0.774840951
98,2,11,-1.13610148
98,2,12,-0.183219001
98,2,13,-0.566791356
98,2,14,-1.39841056
98,2,15,-0.0247886926
98,2,16,-1.99346566
99,1,1,1.54620945
99,1,2,0.286001801
99,1,3,2.05734944
99,1,4,0.0903870538
99,1,5,1.74115264
99,1,6,0.636359334
99,1,7,0.808895767
99,1,8,1.42724729
99,1,9,-0.0542384908
99,1,10,1.7462616
99,1,11,-0.240062296
99,1,12,1.2377274
99,1,13,0.29455778
99,1,14,0.197443634
99,1,15,0.996403217
99,1,16,-0.662328124
99,2,1,1.40025568
99,2,2,0.115467653
99,2,3,1.83866847
99,2,4,-0.198013783
99,2,5,1.36436212
99,2,6,0.156221911
99,2,7,0.214847222
99,2,8,0.713643432
99,2,9,-0.887765944
99,2,10,0.797888458
99,2,11,-1.2927779
99,2,12,0.0963834375
99,2,13,-0.91488862
99,2,14,-1.05534267
99,2,15,-0.271453917
99,2,16,-1.91434383
100,1,1,1.52290189
100,1,2,0.320394486
100,1,3,2.04116774
100,1,4,0.0658260211
100,1,5,1.828233
100,1,6,0.489930093
100,1,7,0.998741627
100,1,8,1.23660207
100,1,9,0.0918142423
100,1,10,1.69680929
100,1,11,-0.316369087
100,1,12,1.45078373
100,1,13,-0.0261327401
100,1,14,0.574087739
100,1,15,0.644614816
100,1,16,-0.413586646
100,2,1,1.37694824
100,2,2,0.149860337
100,2,3,1.82248664
100,2,4,-0.22257483
100,2,5,1.45144248
100,2,6,0.00979267061
100,2,7,0.404693127
100,2,8,0.522998154
100,2,9,-0.741713226
100,2,10,0.748436093
100,2,11,-1.36908484
100,2,12,0.309439898
100,2,13,-1.23557913
100,2,14,-0.678698599
100,2,15,-0.623242319
100,2,16,-1.66560245
101,1,1,1.49928439
101,1,2,0.357034177
101,1,3,2.01862669
101,1,4,0.0527423993
101,1,5,1.90051186
101,1,6,0.356271595
101,1,7,1.1861161
101,1,8,1.02913964
101,1,9,0.280447155
101,1,10,1.57852089
101,1,11,-0.305522591
101,1,12,1.5751828
101,1,13,-0.280107349
101,1,14,0.931172848
101,1,15,0.2448892
101,1,16,-0.0408389643
101,2,1,1.35333061
101,2,2,0.186500028
101,2,3,1.79994559
101,2,4,-0.235658437
101,2,5,1.52372122
101,2,6,-0.12386582
101,2,7,0.592067599
101,2,8,0.315535724
101,2,9,-0.55308032
101,2,10,0.630147696
101,2,11,-1.35823822
101,2,12,0.433838904
101,2,13,-1.48955369
101,2,14,-0.321613491
101,2,15,-1.02296793
101,2,16,-1.29285479
